Man. SOC,Man. V (V),sim SOC,sim V
0.0112853457982645,2.00544710637878,0,1.94697995201886
0.0245616335831442,2.12514788524105,0.000534188034188032,2.05297373156503
0.0378379213680239,2.2285258306221,0.00106837606837607,2.00033865948925
0.0511142091529036,2.33462424825003,0.00160256410256399,2.02790615991582
0.0643904969377833,2.42439983239673,0.00213675213675213,2.03206208804127
0.077666784722663,2.50601399980282,0.00267094017094016,2.04720488756297
0.0909430725075427,2.58296450049999,0.00320512820512819,2.05828665951809
0.104219360292422,2.65495985531894,0.00373931623931623,2.07568446737067
0.117495648077302,2.7236517795524,0.00427350427350426,2.0807625398098
0.130771935862182,2.78350216898354,0.00480769230769218,2.09781098734496
0.144048223647062,2.8315638453449,0.00534188034188032,2.1044828446178
0.157324511431941,2.87418457721253,0.00587606837606836,2.12215226304973
0.170600799216821,2.90683024417497,0.00641025641025639,2.12869847307581
0.183877087001701,2.93675543889053,0.00694444444444442,2.1403146230748
0.19715337478658,2.95942604094778,0.00747863247863234,2.1485565641608
0.21042966257146,2.97846934667587,0.00801282051282048,2.15621383425148
0.22370595035634,2.99479218015709,0.00854700854700852,2.16687604230406
0.236982238141219,3.00839454139144,0.00908119658119655,2.18908525639608
0.250258525926099,3.0210900785435,0.00961538461538458,2.20340400354213
0.263534813710979,3.03106514344868,0.0101495726495726,2.23293253198154
0.276811101495859,3.04104020835387,0.0106837606837607,2.24231907298851
0.290087389280738,3.05010844917677,0.0112179487179487,2.2631381685459
0.303363677065618,3.05554939367051,0.0117521367521367,2.28981700565611
0.316639964850498,3.06099033816425,0.0122863247863247,2.31105147456903
0.329916252635377,3.07187222715173,0.0128205128205128,2.34676988801143
0.343192540420257,3.07187222715173,0.0133547008547008,2.37340676739371
0.356468828205137,3.07912681981005,0.0138888888888888,2.38978202982246
0.369745115990016,3.08275411613921,0.0144230769230769,2.40448472206202
0.383021403774896,3.08275411613921,0.0149572649572649,2.41973204247372
0.396297691559776,3.09000870879753,0.0154914529914529,2.42707541632376
0.409573979344656,3.09363600512669,0.016025641025641,2.4592732829624
0.422850267129535,3.09363600512669,0.016559829059829,2.47952273339991
0.436126554914415,3.10089059778501,0.017094017094017,2.49993393230033
0.449402842699295,3.10451789411417,0.0176282051282051,2.52082905371331
0.462679130484174,3.10451789411417,0.0181623931623931,2.54195505351444
0.475955418269054,3.10633154227875,0.0186965811965811,2.55585420244639
0.489231706053934,3.11539978310165,0.0192307692307693,2.56343907042543
0.502507993838813,3.11539978310165,0.0197649572649572,2.56890022518785
0.515784281623693,3.11539978310165,0.0202991452991452,2.56989678176605
0.529060569408573,3.11539978310165,0.0208333333333333,2.57139351308775
0.542336857193453,3.12084072759539,0.0213675213675213,2.57288536236318
0.555613144978332,3.12628167208913,0.0219017094017094,2.57330041837734
0.568889432763212,3.12628167208913,0.0224358974358975,2.57483698061769
0.582165720548092,3.12628167208913,0.0229700854700854,2.57725952848648
0.595442008332971,3.12990896841829,0.0235042735042734,2.57813942822527
0.608718296117851,3.13716356107661,0.0240384615384615,2.5780959151997
0.621994583902731,3.13716356107661,0.0245726495726496,2.57917440304047
0.63527087168761,3.13716356107661,0.0251068376068376,2.58286110639698
0.64854715947249,3.13716356107661,0.0256410256410257,2.58886853508507
0.66182344725737,3.13716356107661,0.0261752136752136,2.59050023715717
0.67509973504225,3.14532497781721,0.0267094017094016,2.59201075452228
0.688376022827129,3.14804545006408,0.0272435897435897,2.59344009553498
0.701652310612009,3.14804545006408,0.0277777777777778,2.59482826854984
0.714928598396889,3.14804545006408,0.0283119658119658,2.59621528192143
0.728204886181768,3.14804545006408,0.0288461538461539,2.59764114400434
0.741481173966648,3.14804545006408,0.0293803418803418,2.59914586315314
0.754757461751528,3.15167274639324,0.0299145299145298,2.6007694477224
0.768033749536407,3.15892733905156,0.030448717948718,2.60253111523326
0.781310037321287,3.15892733905156,0.030982905982906,2.60432022470005
0.794586325106167,3.15892733905156,0.031517094017094,2.60611238266648
0.807862612891047,3.15892733905156,0.0320512820512821,2.6079057388994
0.821138900675926,3.15892733905156,0.03258547008547,2.60969844316567
0.834415188460806,3.15892733905156,0.0331196581196581,2.61148864523213
0.847691476245686,3.16799557987446,0.0336538461538462,2.61327449486565
0.860967764030565,3.16799557987446,0.0341880341880342,2.61505414183308
0.874244051815445,3.16980922803904,0.0347222222222222,2.61682573590126
0.887520339600325,3.16980922803904,0.0352564102564102,2.61858846946116
0.900796627385204,3.16980922803904,0.0357905982905982,2.62034944764204
0.914072915170084,3.16980922803904,0.0363247863247863,2.62210998617202
0.927349202954964,3.16980922803904,0.0368589743589743,2.62386960968275
0.940625490739844,3.17162287620362,0.0373931623931624,2.62562784280589
0.952795421209317,3.18069111702652,0.0379273504273504,2.62738421017309
0.963858994363383,3.18069111702652,0.0384615384615384,2.62913823641601
0.97160349557123,3.18069111702652,0.0389957264957265,2.63088944616629
0.980296303049425,3.18069111702652,0.0395299145299145,2.63263736405559
0.985986140671516,3.18069111702652,0.0400641025641025,2.63438085962459
0.99004278416134,3.191573006014,0.0405982905982906,2.6361131061832
0.992993070335758,3.191573006014,0.0411324786324786,2.63783319690289
0.995943356510176,3.191573006014,0.0416666666666666,2.63954212822741
0.998819885530233,3.19882759867232,0.0422008547008547,2.64124089660051
1,3.24054150645766,0.0427350427350427,2.64293049846594
,,0.0432692307692307,2.64461193026743
,,0.0438034188034188,2.64628618844875
,,0.0443376068376068,2.64795426945363
,,0.0448717948717948,2.64961657261287
,,0.0454059829059829,2.65126532379931
,,0.0459401709401709,2.65289704253916
,,0.0464743589743589,2.65451069093377
,,0.047008547008547,2.65610523108451
,,0.047542735042735,2.65767962509273
,,0.048076923076923,2.65923283505981
,,0.0486111111111111,2.6607638230871
,,0.0491452991452991,2.66227155127597
,,0.0496794871794871,2.66375545332004
,,0.0502136752136753,2.6652237561972
,,0.0507478632478632,2.66668018931222
,,0.0512820512820512,2.66812527210479
,,0.0518162393162392,2.66955952401465
,,0.0523504273504273,2.67098346448149
,,0.0528846153846154,2.67239761294504
,,0.0534188034188035,2.67380248884501
,,0.0539529914529914,2.6751986116211
,,0.0544871794871794,2.67658643037854
,,0.0550213675213674,2.67796500365909
,,0.0555555555555556,2.67933562527834
,,0.0560897435897436,2.68070063173831
,,0.0566239316239316,2.68206235954101
,,0.0571581196581196,2.68342314518848
,,0.0576923076923076,2.68478532518273
,,0.0582264957264956,2.68615123602578
,,0.0587606837606838,2.68752321421966
,,0.0592948717948718,2.68890362643126
,,0.0598290598290598,2.69029537704703
,,0.0603632478632478,2.691698639819
,,0.0608974358974358,2.69311252271256
,,0.0614316239316239,2.69453613369307
,,0.061965811965812,2.69596858072594
,,0.0625,2.69740897177655
,,0.063034188034188,2.69885641481027
,,0.063568376068376,2.7003100177925
,,0.0641025641025641,2.70176961911707
,,0.0646367521367521,2.70328937654856
,,0.0651709401709402,2.70488648901389
,,0.0657051282051282,2.7065371775984
,,0.0662393162393162,2.7082176633874
,,0.0667735042735043,2.70990416746623
,,0.0673076923076923,2.71157291092022
,,0.0678418803418803,2.71320011483468
,,0.0683760683760684,2.71476200029495
,,0.0689102564102564,2.71623500439166
,,0.0694444444444444,2.71764946855647
,,0.0699786324786325,2.71904101297053
,,0.0705128205128205,2.7204112732952
,,0.0710470085470085,2.72176188519184
,,0.0715811965811966,2.72309448432179
,,0.0721153846153846,2.72441070634643
,,0.0726495726495726,2.72571218692709
,,0.0731837606837607,2.72700056172515
,,0.0737179487179487,2.72827746518089
,,0.0742521367521367,2.72954180076107
,,0.0747863247863247,2.73079401707723
,,0.0753205128205128,2.73203771298801
,,0.0758547008547008,2.73327648735207
,,0.0763888888888888,2.73451393902804
,,0.0769230769230769,2.73575366687458
,,0.0774572649572649,2.73699926975034
,,0.0779914529914529,2.73825434651396
,,0.078525641025641,2.7395224960241
,,0.079059829059829,2.74082086772967
,,0.079594017094017,2.74215802896117
,,0.0801282051282051,2.74352178154786
,,0.0806623931623931,2.74489991265106
,,0.0811965811965812,2.74628020943211
,,0.0817307692307692,2.74765045905233
,,0.0822649572649572,2.74899844867304
,,0.0827991452991452,2.75031196545557
,,0.0833333333333333,2.75157879656124
,,0.0838675213675214,2.75279165327618
,,0.0844017094017094,2.75395906269801
,,0.0849358974358974,2.7550917268424
,,0.0854700854700854,2.75620033514139
,,0.0860042735042734,2.75729557702699
,,0.0865384615384616,2.75838814193122
,,0.0870726495726496,2.75948871928611
,,0.0876068376068376,2.76060799852367
,,0.0881410256410256,2.76175666907592
,,0.0886752136752136,2.76294514267256
,,0.0892094017094016,2.76417029164126
,,0.0897435897435898,2.76541995757883
,,0.0902777777777778,2.76668192500092
,,0.0908119658119658,2.7679439784232
,,0.0913461538461537,2.76919390236132
,,0.0918803418803418,2.77041948133094
,,0.0924145299145299,2.77160849984773
,,0.092948717948718,2.77274874242733
,,0.093482905982906,2.7738369454802
,,0.094017094017094,2.77488754466632
,,0.0945512820512819,2.7759058577521
,,0.0950854700854701,2.77689687288787
,,0.0956196581196581,2.77786557822392
,,0.0961538461538462,2.77881696191057
,,0.0966880341880342,2.77975601209812
,,0.0972222222222222,2.78068771693688
,,0.0977564102564102,2.78161706457717
,,0.0982905982905983,2.78253998723608
,,0.0988247863247863,2.78344159711644
,,0.0993589743589743,2.78432718738801
,,0.0998931623931624,2.7852028381862
,,0.10042735042735,2.78607462964638
,,0.100961538461538,2.78694864190395
,,0.101495726495727,2.78783095509429
,,0.102029914529915,2.7887276493528
,,0.102564102564103,2.78964480481485
,,0.103098290598291,2.79060520569293
,,0.103632478632479,2.79164495508375
,,0.104166666666667,2.79274390192259
,,0.104700854700855,2.79387913443033
,,0.105235042735043,2.79502774082785
,,0.105769230769231,2.79616680933604
,,0.106303418803419,2.79727342817578
,,0.106837606837607,2.79832468556796
,,0.107371794871795,2.79929766973346
,,0.107905982905983,2.80018900857882
,,0.108440170940171,2.8010493660636
,,0.108974358974359,2.80188584252394
,,0.109508547008547,2.80270152045795
,,0.110042735042735,2.80349948236375
,,0.110576923076923,2.80428281073944
,,0.111111111111111,2.80505458808314
,,0.111645299145299,2.80581789689296
,,0.112179487179487,2.80657581966701
,,0.112713675213675,2.80733380583637
,,0.113247863247863,2.80809908677401
,,0.113782051282051,2.80886533081938
,,0.114316239316239,2.80962514034099
,,0.114850427350427,2.81037111770736
,,0.115384615384615,2.81109586528698
,,0.115918803418803,2.81179198544837
,,0.116452991452991,2.81245208056002
,,0.116987179487179,2.81306875299046
,,0.117521367521368,2.81363914809896
,,0.118055555555556,2.81418002069871
,,0.118589743589744,2.81469605354889
,,0.119123931623932,2.81518986840601
,,0.11965811965812,2.81566408702658
,,0.120192307692308,2.81612133116713
,,0.120726495726496,2.81656422258418
,,0.121260683760684,2.81699538303424
,,0.121794871794872,2.81741743427383
,,0.12232905982906,2.81783368590407
,,0.122863247863248,2.81824932471479
,,0.123397435897436,2.81866496352552
,,0.123931623931624,2.81908060233624
,,0.124465811965812,2.81949624114697
,,0.125,2.8199118799577
,,0.125534188034188,2.82032751876842
,,0.126068376068376,2.82074315757915
,,0.126602564102564,2.82115879638988
,,0.127136752136752,2.8215744352006
,,0.12767094017094,2.82199007401133
,,0.128205128205128,2.82240571282206
,,0.128739316239316,2.82282135163279
,,0.129273504273504,2.82323699044351
,,0.129807692307692,2.82365262925424
,,0.13034188034188,2.82406826806497
,,0.130876068376068,2.82448390687569
,,0.131410256410256,2.82489954568642
,,0.131944444444444,2.82531518449715
,,0.132478632478633,2.82573082330788
,,0.133012820512821,2.8261464621186
,,0.133547008547009,2.82656210092933
,,0.134081196581197,2.82697773974006
,,0.134615384615385,2.82739337855079
,,0.135149572649573,2.82780901736151
,,0.135683760683761,2.82822465617224
,,0.136217948717949,2.82864029498297
,,0.136752136752137,2.82905593379369
,,0.137286324786325,2.82947157260442
,,0.137820512820513,2.82988721141515
,,0.138354700854701,2.83030285022588
,,0.138888888888889,2.8307184890366
,,0.139423076923077,2.83113412784733
,,0.139957264957265,2.83154976665805
,,0.140491452991453,2.83196540546877
,,0.141025641025641,2.8323810442795
,,0.141559829059829,2.83279388038024
,,0.142094017094017,2.83317289542725
,,0.142628205128205,2.83351465114393
,,0.143162393162393,2.83382570286844
,,0.143696581196581,2.83411260593895
,,0.144230769230769,2.83438191569363
,,0.144764957264957,2.83464018747062
,,0.145299145299145,2.83489397660811
,,0.145833333333333,2.83514983844424
,,0.146367521367521,2.8354126742148
,,0.146901709401709,2.83566348386186
,,0.147435897435897,2.83589898966938
,,0.147970085470085,2.83612429112712
,,0.148504273504274,2.83634448772482
,,0.149038461538462,2.83656467895225
,,0.14957264957265,2.83678996429915
,,0.150106837606838,2.83702544325529
,,0.150641025641026,2.8372762153104
,,0.151175213675214,2.837548157712
,,0.151709401709402,2.83785813121672
,,0.15224358974359,2.83820356229633
,,0.152777777777778,2.83857425361402
,,0.153311965811966,2.83896000783301
,,0.153846153846154,2.83935062761652
,,0.154380341880342,2.83973591562775
,,0.15491452991453,2.84010567452991
,,0.155448717948718,2.84044970698622
,,0.155982905982906,2.84075784956176
,,0.156517094017094,2.84102590407046
,,0.157051282051282,2.84126242636466
,,0.15758547008547,2.84147761510685
,,0.158119658119658,2.8416816689595
,,0.158653846153846,2.84188478658507
,,0.159188034188034,2.84209716664606
,,0.159722222222222,2.84232900780492
,,0.16025641025641,2.84259050872415
,,0.160790598290598,2.84289149479819
,,0.161324786324786,2.84322221602205
,,0.161858974358974,2.84357068056446
,,0.162393162393162,2.84393203271864
,,0.16292735042735,2.8443014167778
,,0.163461538461538,2.84467397703515
,,0.163995726495727,2.8450448577839
,,0.164529914529915,2.84540920331727
,,0.165064102564103,2.84576215792847
,,0.165598290598291,2.84609901462473
,,0.166132478632479,2.84642719815234
,,0.166666666666667,2.8467517328538
,,0.167200854700855,2.84707067628695
,,0.167735042735043,2.84738208600963
,,0.168269230769231,2.84768401957966
,,0.168803418803419,2.84797453455489
,,0.169337606837607,2.84825168849315
,,0.169871794871795,2.84851353895227
,,0.170405982905983,2.84875803591756
,,0.170940170940171,2.84896615540622
,,0.171474358974359,2.84913274397591
,,0.172008547008547,2.84926904320926
,,0.172542735042735,2.8493862946889
,,0.173076923076923,2.84949573999748
,,0.173611111111111,2.84960862071761
,,0.174145299145299,2.84973617843193
,,0.174679487179487,2.84988965472307
,,0.175213675213675,2.85008027183601
,,0.175747863247863,2.8502993442715
,,0.176282051282051,2.85053066149963
,,0.176816239316239,2.85077089294752
,,0.177350427350427,2.85101670804235
,,0.177884615384615,2.85126477621124
,,0.178418803418803,2.85151176688135
,,0.178952991452991,2.85175434947984
,,0.17948717948718,2.85198919343384
,,0.180021367521368,2.85221296817051
,,0.180555555555556,2.85241750680538
,,0.181089743589744,2.85260071587682
,,0.181623931623932,2.85276878745648
,,0.18215811965812,2.85292791435249
,,0.182692307692308,2.85308428937298
,,0.183226495726496,2.85324410532608
,,0.183760683760684,2.85341355501992
,,0.184294871794872,2.85359883126262
,,0.18482905982906,2.85380612686233
,,0.185363247863248,2.85406362611959
,,0.185897435897436,2.85438914782872
,,0.186431623931624,2.85476420645693
,,0.186965811965812,2.85517022790308
,,0.1875,2.85558863806602
,,0.188034188034188,2.8560008628446
,,0.188568376068376,2.85638832813768
,,0.189102564102564,2.85673245984411
,,0.189636752136752,2.85701468386274
,,0.19017094017094,2.85723463408546
,,0.190705128205128,2.8574180990934
,,0.191239316239316,2.85757618756936
,,0.191773504273504,2.8577198279843
,,0.192307692307692,2.85785994880916
,,0.19284188034188,2.8580074785149
,,0.193376068376068,2.85817334557247
,,0.193910256410256,2.8583684784528
,,0.194444444444444,2.85860380562686
,,0.194978632478633,2.85886989651895
,,0.195512820512821,2.85913654353778
,,0.196047008547009,2.85940319055661
,,0.196581196581197,2.85966983757544
,,0.197115384615385,2.85993648459427
,,0.197649572649573,2.8602031316131
,,0.198183760683761,2.86046977863192
,,0.198717948717949,2.86073642565075
,,0.199252136752137,2.86100307266958
,,0.199786324786325,2.86126971968841
,,0.200320512820513,2.86153636670723
,,0.200854700854701,2.86180301372606
,,0.201388888888889,2.86206966074488
,,0.201923076923077,2.86233630776371
,,0.202457264957265,2.86260295478253
,,0.202991452991453,2.86286960180135
,,0.203525641025641,2.86313624882018
,,0.204059829059829,2.863402895839
,,0.204594017094017,2.86370002223333
,,0.205128205128205,2.86408534930922
,,0.205662393162393,2.86453609736957
,,0.206196581196581,2.86502632021502
,,0.206730769230769,2.86553007164622
,,0.207264957264957,2.86602140546384
,,0.207799145299145,2.86647437546853
,,0.208333333333333,2.86686303546094
,,0.208867521367521,2.86716143924173
,,0.209401709401709,2.86735930228083
,,0.209935897435897,2.86749357047024
,,0.210470085470085,2.86758115481086
,,0.211004273504274,2.86763708478577
,,0.211538461538462,2.86767638987801
,,0.21207264957265,2.86771409957066
,,0.212606837606838,2.86776524334676
,,0.213141025641026,2.86784485068938
,,0.213675213675214,2.86796795108159
,,0.214209401709402,2.86813432889101
,,0.21474358974359,2.8683039042137
,,0.215277777777778,2.86847410074385
,,0.215811965811966,2.86864568346286
,,0.216346153846154,2.86881941735214
,,0.216880341880342,2.86899606739309
,,0.21741452991453,2.86917639856709
,,0.217948717948718,2.86936117585556
,,0.218482905982906,2.86955116423988
,,0.219017094017094,2.86974928631063
,,0.219551282051282,2.8699616706385
,,0.22008547008547,2.87018396530224
,,0.220619658119658,2.87041092456315
,,0.221153846153846,2.87063730268255
,,0.221688034188034,2.87085785392173
,,0.222222222222222,2.87106733254201
,,0.22275641025641,2.87126049280469
,,0.223290598290598,2.87143208897107
,,0.223824786324786,2.87158198109861
,,0.224358974358974,2.87172941876717
,,0.224893162393162,2.87187685643574
,,0.22542735042735,2.8720242941043
,,0.225961538461538,2.87217173177286
,,0.226495726495727,2.87231916944142
,,0.227029914529915,2.87246660710998
,,0.227564102564103,2.87261404477855
,,0.228098290598291,2.87276148244711
,,0.228632478632479,2.87290892011567
,,0.229166666666667,2.87305635778423
,,0.229700854700855,2.87320379545279
,,0.230235042735043,2.87335123312135
,,0.230769230769231,2.87349867078991
,,0.231303418803419,2.87364610845848
,,0.231837606837607,2.87379354612704
,,0.232371794871795,2.8739409837956
,,0.232905982905983,2.87408842146416
,,0.233440170940171,2.87425145250794
,,0.233974358974359,2.87451531656345
,,0.234508547008547,2.87486893911257
,,0.235042735042735,2.87528363885581
,,0.235576923076923,2.87573073449369
,,0.236111111111111,2.87618154472669
,,0.236645299145299,2.87660738825534
,,0.237179487179487,2.87697958378012
,,0.237713675213675,2.87726945000154
,,0.238247863247863,2.87745997768896
,,0.238782051282051,2.87762047878117
,,0.239316239316239,2.87777021907541
,,0.239850427350427,2.87791238632376
,,0.240384615384615,2.87805016827833
,,0.240918803418803,2.87818675269121
,,0.241452991452991,2.87832532731451
,,0.24198717948718,2.87846907990032
,,0.242521367521368,2.87862119820073
,,0.243055555555556,2.87878332294621
,,0.243589743589744,2.87894441341157
,,0.244123931623932,2.879103846699
,,0.24465811965812,2.87926435510459
,,0.245192307692308,2.87942867092445
,,0.245726495726496,2.87959952645467
,,0.246260683760684,2.87977965399134
,,0.246794871794872,2.87997178583057
,,0.24732905982906,2.88017865426845
,,0.247863247863248,2.88040501157051
,,0.248397435897436,2.88067260258745
